Time,pkg_no,fs,sf,Altitude,Velocity,Accel_Z,Yaw,Pitch,Roll,UTC,LTC_lat,LTC_lng,CTC_lat,CTC_lng,thrust,S1,S2,S3,S4,Rkt_mx,Pld_mx,Temp,Pressure,Accel_Abs215450,1282,0,195,3.914045,-2.379919,-9.850739,-171.275436,0.358885,84.251526,5584000.00,38.402256,33.704597,0.000000,0.000000,0.000001,0.000001,0.000001,0.000001,0.000001,0,0,0,0
215775,1284,0,95,3.857394,1.890874,-9.850485,-171.281784,0.361859,84.251381,5584000.00,38.402256,33.704597,0.000000,0.000000,0.000000,0.000000,0.000000,0.000000,0.000000,0,0,0,0
215948,1285,0,106,4.523503,3.587726,-9.851249,-171.286926,0.363973,84.251244,5584000.00,38.402256,33.704597,0.000000,0.000000,0.000000,0.000000,0.000000,0.000000,0.000000,0,0,0,0
216121,1286,0,138,4.364585,-1.106282,-9.851037,-171.291183,0.365602,84.251106,5584000.00,38.402256,33.704597,0.000000,0.000000,0.000001,0.000001,0.000001,0.000001,0.000001,0,0,0,0
216294,1287,0,124,3.996343,-1.871123,-9.850448,-171.294800,0.366945,84.250961,5584000.00,38.402256,33.704597,0.000000,0.000000,0.000000,0.000000,0.000000,0.000000,0.000000,0,0,0,0
216452,1288,0,98,4.234896,0.903040,-9.851645,-171.294800,0.366945,84.250961,5584000.00,38.402256,33.704597,0.000000,0.000000,0.000000,0.000000,0.000000,0.000000,0.000000,0,0,0,0
216788,1290,0,181,4.458365,-1.160665,-9.848744,-171.299683,0.368772,84.250916,5584000.00,38.402256,33.704597,0.000000,0.000000,0.000001,0.000001,0.000001,0.000001,0.000001,0,0,0,0
216962,1291,0,228,4.392688,2.188756,-9.849011,-171.301346,0.369410,84.251129,5585100.00,38.402256,33.704597,0.000000,0.000000,0.000001,0.000001,0.000001,0.000001,0.000001,0,0,0,0
217135,1292,0,14,3.905313,-0.339327,-9.848622,-171.302856,0.370006,84.255836,5585100.00,38.402256,33.704597,0.000000,0.000000,0.000001,0.000001,0.000001,0.000001,0.000001,0,0,0,0
217304,1293,0,249,4.939793,2.799195,-9.847611,-171.303940,0.370454,84.261009,5585100.00,38.402256,33.704597,0.000000,0.000000,0.000001,0.000001,0.000001,0.000001,0.000001,0,0,0,0
217630,1295,0,54,3.380995,-4.406603,-9.848179,-171.304962,0.370880,84.267487,5585100.00,38.402256,33.704597,0.000000,0.000000,0.000001,0.000001,0.000001,0.000001,0.000001,0,0,0,0
217802,1296,0,68,3.712713,-0.820031,-9.847931,-171.305786,0.371224,84.273781,5585100.00,38.402256,33.704597,0.000000,0.000000,0.000000,0.000000,0.000000,0.000000,0.000000,0,0,0,0
217976,1297,0,186,4.774712,5.175318,-9.847928,-171.306427,0.371522,84.279739,5585200.00,38.402256,33.704597,0.000000,0.000000,0.000001,0.000001,0.000001,0.000001,0.000001,0,0,0,0
218149,1298,0,180,3.932724,-4.302704,-9.848518,-171.306976,0.371783,84.285019,5585200.00,38.402256,33.704597,0.000000,0.000000,0.000001,0.000001,0.000001,0.000001,0.000001,0,0,0,0
218307,1299,0,209,3.442468,0.882394,-9.848645,-171.306976,0.371783,84.285019,5585200.00,38.402256,33.704597,0.000000,0.000000,0.000001,0.000001,0.000001,0.000001,0.000001,0,0,0,0
218644,1301,0,227,4.444116,-2.619045,-9.849466,-171.307953,0.372214,84.293152,5585200.00,38.402256,33.704597,0.000000,0.000000,0.000000,0.000000,0.000000,0.000000,0.000000,0,0,0,0
218816,1302,0,234,3.792752,2.529280,-9.849731,-171.308243,0.372393,84.289360,5585200.00,38.402256,33.704597,0.000000,0.000000,0.000000,0.000000,0.000000,0.000000,0.000000,0,0,0,0
218989,1303,0,132,4.086001,-5.392643,-9.850271,-171.308517,0.372555,84.282661,5585300.00,38.402256,33.704597,0.000000,0.000000,0.000000,0.000000,0.000000,0.000000,0.000000,0,0,0,0
219151,1304,0,195,4.128613,5.329878,-9.851008,-171.308792,0.372699,84.282661,5585300.00,38.402256,33.704597,0.000000,0.000000,0.000000,0.000000,0.000000,0.000000,0.000000,0,0,0,0
219312,1305,0,195,4.128613,5.329878,-9.851008,-171.308792,0.372699,84.276947,5585300.00,38.402256,33.704597,0.000000,0.000000,0.000001,0.000001,0.000001,0.000001,0.000001,0,0,0,0
219486,1306,0,63,3.684191,-2.810285,-9.850558,-171.309067,0.372828,84.272270,5585300.00,38.402256,33.704597,0.000000,0.000000,0.000000,0.000000,0.000000,0.000000,0.000000,0,0,0,0
219658,1307,0,22,4.248221,-1.077559,-9.851189,-171.309372,0.372958,84.256851,5585300.00,38.402256,33.704597,0.000000,0.000000,0.000000,0.000000,0.000000,0.000000,0.000000,0,0,0,0
219830,1308,0,209,4.151571,0.201964,-9.851332,-171.309647,0.373065,84.240776,5585300.00,38.402256,33.704597,0.000000,0.000000,0.000001,0.000001,0.000001,0.000001,0.000001,0,0,0,0
220004,1309,0,56,3.582565,-1.783434,-9.851327,-171.309921,0.373162,84.227493,5585400.00,38.402256,33.704597,0.000000,0.000000,0.000000,0.000000,0.000000,0.000000,0.000000,0,0,0,0
220162,1310,0,32,4.376351,2.918160,-9.851847,-171.309921,0.373162,84.227493,5585400.00,38.402256,33.704597,0.000000,0.000000,0.000000,0.000000,0.000000,0.000000,0.000000,0,0,0,0
220498,1312,0,109,4.664145,-1.818575,-9.852239,-171.310211,0.373330,84.210640,5585400.00,38.402256,33.704597,0.000000,0.000000,0.000000,0.000000,0.000000,0.000000,0.000000,0,0,0,0
220669,1313,0,193,4.682295,5.823689,-9.851456,-171.310211,0.373405,84.205681,5585400.00,38.402256,33.704597,0.000000,0.000000,0.000000,0.000000,0.000000,0.000000,0.000000,0,0,0,0
220840,1314,0,3,4.237140,2.925639,-9.852847,-171.310211,0.373474,84.198463,5585400.00,38.402256,33.704597,0.000000,0.000000,0.000000,0.000000,0.000000,0.000000,0.000000,0,0,0,0
221006,1315,0,79,3.514766,-5.061841,-9.852334,-171.310211,0.373535,84.191399,5585500.00,38.402256,33.704597,0.000000,0.000000,0.000001,0.000000,0.000000,0.000000,0.000000,0,0,0,0
221162,1316,0,79,3.514766,-5.061841,-9.852334,-171.310211,0.373535,84.191399,5585500.00,38.402256,33.704597,0.000000,0.000000,0.000001,0.000001,0.000001,0.000001,0.000001,0,0,0,0
221335,1317,0,171,4.577534,-1.392627,-9.852164,-171.310211,0.373598,84.190643,5585500.00,38.402256,33.704597,0.000000,0.000000,0.000000,0.000000,0.000000,0.000000,0.000000,0,0,0,0
221506,1318,0,183,4.283762,2.204173,-9.852218,-171.310211,0.373656,84.190125,5585500.00,38.402256,33.704597,0.000000,0.000000,0.000001,0.000001,0.000001,0.000001,0.000001,0,0,0,0
221678,1319,0,99,4.634857,-0.808628,-9.852855,-171.310211,0.373710,84.186737,5585500.00,38.402256,33.704597,0.000000,0.000000,0.000001,0.000001,0.000001,0.000001,0.000001,0,0,0,0
222000,1321,0,175,3.935383,-0.980192,-9.853114,-171.310211,0.373758,84.182327,5585500.00,38.402256,33.704597,0.000000,0.000000,0.000001,0.000001,0.000001,0.000001,0.000001,0,0,0,0
222172,1322,0,255,4.109780,2.127541,-9.853234,-171.310211,0.373803,84.172943,5585500.00,38.402256,33.704597,0.000000,0.000000,0.000000,0.000000,0.000000,0.000000,0.000000,0,0,0,0
222346,1323,0,111,4.758628,-2.090344,-9.852441,-171.310211,0.373845,84.164101,5585500.00,38.402256,33.704597,0.000000,0.000000,0.000000,0.000000,0.000000,0.000000,0.000000,0,0,0,0
222518,1324,0,147,4.010247,1.308352,-9.852609,-171.310211,0.373882,84.156921,5585500.00,38.402256,33.704597,0.000000,0.000000,0.000000,0.000000,0.000000,0.000000,0.000000,0,0,0,0
222691,1325,0,179,4.411520,-1.149228,-9.851714,-171.310211,0.373921,84.150436,5585500.00,38.402256,33.704597,0.000000,0.000000,0.000001,0.000001,0.000001,0.000001,0.000001,0,0,0,0
222849,1326,0,197,3.703718,3.015587,-9.851964,-171.310211,0.373921,84.150436,5585500.00,38.402256,33.704597,0.000000,0.000000,0.000001,0.000001,0.000001,0.000001,0.000001,0,0,0,0
223187,1328,0,149,4.166979,-1.789948,-9.852544,-171.310211,0.373993,84.141670,5585500.00,38.402256,33.704597,0.000000,0.000000,0.000000,0.000000,0.000000,0.000000,0.000000,0,0,0,0
223360,1329,0,145,4.431370,-2.587349,-9.852940,-171.310211,0.374026,84.138786,5585500.00,38.402256,33.704597,0.000000,0.000000,0.000001,0.000001,0.000001,0.000001,0.000001,0,0,0,0
223532,1330,0,197,4.448205,3.012008,-9.853196,-171.310211,0.374058,84.136482,5585500.00,38.402256,33.704597,0.000000,0.000000,0.000000,0.000000,0.000000,0.000000,0.000000,0,0,0,0
223705,1331,0,165,3.831760,-0.131635,-9.853360,-171.310211,0.374087,84.134781,5585500.00,38.402256,33.704597,0.000000,0.000000,0.000000,0.000000,0.000000,0.000000,0.000000,0,0,0,0
223863,1332,0,171,3.755392,-2.779135,-9.853508,-171.310211,0.374087,84.134781,5585500.00,38.402256,33.704597,0.000000,0.000000,0.000000,0.000000,0.000000,0.000000,0.000000,0,0,0,0
224202,1334,0,213,3.752804,2.517125,-9.854012,-171.310211,0.374142,84.132317,5585500.00,38.402256,33.704597,0.000000,0.000000,0.000001,0.000001,0.000001,0.000001,0.000001,0,0,0,0
224374,1335,0,231,4.432201,0.331881,-9.853905,-171.310211,0.374166,84.131454,5585500.00,38.402256,33.704597,0.000000,0.000000,0.000000,0.000000,0.000000,0.000000,0.000000,0,0,0,0
224548,1336,0,193,4.579217,-1.548606,-9.854353,-171.310211,0.374192,84.130676,5585500.00,38.402256,33.704597,0.000000,0.000000,0.000001,0.000001,0.000001,0.000001,0.000001,0,0,0,0
224720,1337,0,245,4.559482,1.551703,-9.854465,-171.310211,0.374214,84.130096,5585500.00,38.402256,33.704597,0.000000,0.000000,0.000001,0.000001,0.000001,0.000001,0.000001,0,0,0,0
224878,1338,0,237,3.739248,1.513908,-9.854448,-171.310211,0.374214,84.130096,5585500.00,38.402256,33.704597,0.000000,0.000000,0.000001,0.000001,0.000001,0.000001,0.000001,0,0,0,0
225216,1340,0,199,4.754098,-1.715914,-9.853966,-171.310211,0.374255,84.129189,5585500.00,38.402256,33.704597,0.000000,0.000000,0.000001,0.000001,0.000001,0.000001,0.000001,0,0,0,0
225389,1341,0,59,4.365737,-3.836877,-9.853919,-171.310211,0.374275,84.133614,5585500.00,38.402256,33.704597,0.000000,0.000000,0.000000,0.000000,0.000000,0.000000,0.000000,0,0,0,0
225561,1342,0,17,4.701796,4.028602,-9.852124,-171.310211,0.374293,84.138145,5585500.00,38.402256,33.704597,0.000000,0.000000,0.000001,0.000001,0.000001,0.000001,0.000001,0,0,0,0
225729,1343,0,179,5.014639,-3.929166,-9.852986,-171.310211,0.374309,84.140007,5585500.00,38.402256,33.704597,0.000000,0.000000,0.000001,0.000001,0.000001,0.000001,0.000001,0,0,0,0
226230,1346,0,223,5.233568,0.427235,-9.851304,-171.310211,0.374342,84.137665,5585500.00,38.402256,33.704597,0.000000,0.000000,0.000001,0.000001,0.000001,0.000001,0.000001,0,0,0,0
226403,1347,0,43,3.919779,0.579747,-9.851089,-171.310211,0.374356,84.136192,5585500.00,38.402256,33.704597,0.000000,0.000000,0.000000,0.000000,0.000000,0.000000,0.000000,0,0,0,0
226577,1348,0,45,4.843505,-2.030900,-9.851548,-171.310211,0.374371,84.134819,5585500.00,38.402256,33.704597,0.000000,0.000000,0.000001,0.000001,0.000001,0.000001,0.000001,0,0,0,0
226900,1350,0,75,3.229825,-0.072160,-9.851703,-171.310211,0.374385,84.133690,5585500.00,38.402256,33.704597,0.000000,0.000000,0.000000,0.000000,0.000000,0.000000,0.000000,0,0,0,0
227073,1351,0,17,3.924111,-1.063730,-9.851479,-171.310211,0.374397,84.127304,5585500.00,38.402256,33.704597,0.000000,0.000000,0.000000,0.000000,0.000000,0.000000,0.000000,0,0,0,0
227245,1352,0,89,4.226303,0.298421,-9.851443,-171.310211,0.374409,84.117676,5585500.00,38.402256,33.704597,0.000000,0.000000,0.000001,0.000001,0.000001,0.000001,0.000001,0,0,0,0
227419,1353,0,101,3.246037,-0.893615,-9.851076,-171.310211,0.374422,84.107391,5585500.00,38.402256,33.704597,0.000000,0.000000,0.000000,0.000000,0.000000,0.000000,0.000000,0,0,0,0
227581,1354,0,227,3.564151,-0.563850,-9.851748,-171.310211,0.374433,84.107391,5585500.00,38.402256,33.704597,0.000000,0.000000,0.000000,0.000000,0.000000,0.000000,0.000000,0,0,0,0
227913,1356,0,205,4.140986,0.002212,-9.850965,-171.310211,0.374445,84.091110,5585500.00,38.402256,33.704597,0.000000,0.000000,0.000000,0.000000,0.000000,0.000000,0.000000,0,0,0,0
228087,1357,0,249,3.882583,-1.236380,-9.851770,-171.310211,0.374457,84.085007,5585500.00,38.402256,33.704597,0.000000,0.000000,0.000001,0.000001,0.000001,0.000001,0.000001,0,0,0,0
228259,1358,0,119,4.461944,2.745783,-9.852061,-171.310211,0.374469,84.080460,5585500.00,38.402256,33.704597,0.000000,0.000000,0.000000,0.000000,0.000000,0.000000,0.000000,0,0,0,0
228424,1359,0,81,3.128815,-5.755238,-9.852383,-171.310211,0.374478,84.077522,5585500.00,38.402256,33.704597,0.000000,0.000000,0.000000,0.000000,0.000000,0.000000,0.000000,0,0,0,0
228583,1360,0,81,3.128815,-5.755238,-9.852383,-171.310211,0.374478,84.077522,5585500.00,38.402256,33.704597,0.000000,0.000000,0.000000,0.000000,0.000000,0.000000,0.000000,0,0,0,0
228755,1361,0,133,4.039726,4.231752,-9.851760,-171.310211,0.374488,84.075111,5585500.00,38.402256,33.704597,0.000000,0.000000,0.000000,0.000000,0.000000,0.000000,0.000000,0,0,0,0
228928,1362,0,203,4.346737,-1.043068,-9.851977,-171.310211,0.374497,84.073151,5585500.00,38.402256,33.704597,0.000000,0.000000,0.000000,0.000000,0.000000,0.000000,0.000000,0,0,0,0
229100,1363,0,211,4.158153,0.747761,-9.851628,-171.310211,0.374506,84.071678,5585500.00,38.402256,33.704597,0.000000,0.000000,0.000001,0.000001,0.000001,0.000001,0.000001,0,0,0,0
229271,1364,0,177,4.223834,5.677547,-9.852289,-171.310211,0.374515,84.070511,5585500.00,38.402256,33.704597,0.000000,0.000000,0.000000,0.000000,0.000000,0.000000,0.000000,0,0,0,0
229595,1366,0,115,3.957994,-0.808127,-9.852539,-171.310211,0.374523,84.069565,5585500.00,38.402256,33.704597,0.000000,0.000000,0.000001,0.000001,0.000001,0.000001,0.000001,0,0,0,0
229767,1367,0,187,3.731297,-4.972477,-9.852894,-171.310211,0.374531,84.068825,5585500.00,38.402256,33.704597,0.000000,0.000000,0.000001,0.000001,0.000001,0.000001,0.000001,0,0,0,0
229940,1368,0,243,4.090147,-0.193485,-9.853697,-171.310211,0.374539,84.064590,5585500.00,38.402256,33.704597,0.000000,0.000000,0.000000,0.000000,0.000000,0.000000,0.000000,0,0,0,0
230111,1369,0,249,3.603720,0.969808,-9.853751,-171.310211,0.374547,84.064293,5585500.00,38.402256,33.704597,0.000000,0.000000,0.000000,0.000000,0.000000,0.000000,0.000000,0,0,0,0
230607,1372,0,1,3.925138,-4.111377,-9.853507,-171.310211,0.372807,84.053688,5585500.00,38.402256,33.704597,0.000000,0.000000,0.000001,0.000001,0.000001,0.000001,0.000001,0,0,0,0
230780,1373,0,17,4.609966,2.658846,-9.853830,-171.310211,0.370846,84.045448,5585500.00,38.402256,33.704597,0.000000,0.000000,0.000001,0.000001,0.000001,0.000001,0.000001,0,0,0,0
230953,1374,0,25,4.788095,2.000266,-9.853580,-171.310211,0.368174,84.037613,5590500.00,38.402256,33.704597,0.000000,0.000000,0.000000,0.000000,0.000000,0.000000,0.000000,0,0,0,0
231116,1375,0,7,4.686669,-0.642235,-9.853752,-171.310211,0.364489,84.030418,5590500.00,38.402256,33.704597,0.000000,0.000000,0.000000,0.000000,0.000000,0.000000,0.000000,0,0,0,0
231276,1376,0,7,4.686669,-0.642235,-9.853752,-171.310211,0.364489,84.030418,5590500.00,38.402256,33.704597,0.000000,0.000000,0.000001,0.000001,0.000001,0.000001,0.000001,0,0,0,0
231449,1377,0,233,4.381220,0.022077,-9.853712,-171.310211,0.360213,84.024857,5590500.00,38.402256,33.704597,0.000000,0.000000,0.000001,0.000001,0.000001,0.000001,0.000001,0,0,0,0
231622,1378,0,207,3.679496,-1.512224,-9.854269,-171.310211,0.354797,84.009598,5590500.00,38.402256,33.704597,0.000000,0.000000,0.000001,0.000001,0.000001,0.000001,0.000001,0,0,0,0
231795,1379,0,57,4.018697,-0.565307,-9.853878,-171.310211,0.349385,83.991516,5590500.00,38.402256,33.704597,0.000000,0.000000,0.000001,0.000001,0.000001,0.000001,0.000001,0,0,0,0
231959,1380,0,229,4.378495,3.092746,-9.854772,-171.310211,0.343859,83.991516,5590600.00,38.402256,33.704597,0.000000,0.000000,0.000001,0.000001,0.000001,0.000001,0.000001,0,0,0,0
232119,1381,0,229,4.378495,3.092746,-9.854772,-171.310211,0.343859,83.976318,5590600.00,38.402256,33.704597,0.000000,0.000000,0.000001,0.000001,0.000001,0.000001,0.000001,0,0,0,0
232292,1382,0,65,4.007392,-3.198767,-9.853988,-171.310211,0.339095,83.966118,5590600.00,38.402256,33.704597,0.000000,0.000000,0.000001,0.000001,0.000001,0.000001,0.000001,0,0,0,0
232465,1383,0,97,4.332263,-0.450464,-9.853561,-171.310211,0.335371,83.949173,5590600.00,38.402256,33.704597,0.000000,0.000000,0.000000,0.000000,0.000000,0.000000,0.000000,0,0,0,0
232637,1384,0,103,4.420105,-0.984837,-9.854038,-171.310211,0.331670,83.934555,5590600.00,38.402256,33.704597,0.000000,0.000000,0.000001,0.000001,0.000001,0.000001,0.000001,0,0,0,0
232801,1385,0,179,3.628345,2.171396,-9.854300,-171.310211,0.328925,83.918251,5590600.00,38.402256,33.704597,0.000000,0.000000,0.000001,0.000001,0.000001,0.000001,0.000001,0,0,0,0
232960,1386,0,179,3.628345,2.171396,-9.854300,-171.310211,0.328925,83.918251,5590700.00,38.402256,33.704597,0.000000,0.000000,0.000000,0.000000,0.000000,0.000000,0.000000,0,0,0,0
233133,1387,0,59,4.606531,1.892398,-9.854381,-171.310211,0.326658,83.895370,5590700.00,38.402256,33.704597,0.000000,0.000000,0.000000,0.000000,0.000000,0.000000,0.000000,0,0,0,0
233307,1388,0,57,4.322074,-0.716453,-9.854120,-171.310211,0.324696,83.851700,5590700.00,38.402256,33.704597,0.000000,0.000000,0.000000,0.000000,0.000000,0.000000,0.000000,0,0,0,0
233480,1389,0,113,3.554786,-1.353604,-9.854330,-171.310211,0.323095,83.833656,5590700.00,38.402256,33.704597,0.000000,0.000000,0.000001,0.000001,0.000001,0.000001,0.000001,0,0,0,0
233652,1390,0,69,4.467595,-1.737126,-9.854527,-171.310211,0.321843,83.815712,5590700.00,38.402256,33.704597,0.000000,0.000000,0.000000,0.000000,0.000000,0.000000,0.000000,0,0,0,0
233810,1391,0,109,4.121752,1.831638,-9.853712,-171.310211,0.321843,83.815712,5590700.00,38.402256,33.704597,0.000000,0.000000,0.000000,0.000000,0.000000,0.000000,0.000000,0,0,0,0
234148,1393,0,91,4.801598,-0.702520,-9.854477,-171.310211,0.319876,83.786407,5590800.00,38.402256,33.704597,0.000000,0.000000,0.000001,0.000001,0.000001,0.000001,0.000001,0,0,0,0
234320,1394,0,191,3.832961,1.970040,-9.854145,-171.310211,0.319177,83.777031,5590800.00,38.402256,33.704597,0.000000,0.000000,0.000000,0.000000,0.000000,0.000000,0.000000,0,0,0,0
234494,1395,0,99,3.688118,-3.011197,-9.854073,-171.310211,0.318480,83.769791,5590800.00,38.402256,33.704597,0.000000,0.000000,0.000000,0.000000,0.000000,0.000000,0.000000,0,0,0,0
234666,1396,0,107,3.925677,-1.104501,-9.854053,-171.310211,0.317890,83.750809,5590800.00,38.402256,33.704597,0.000000,0.000000,0.000001,0.000001,0.000001,0.000001,0.000001,0,0,0,0
234824,1397,0,123,3.424381,-4.338545,-9.854608,-171.310211,0.317890,83.750809,5590800.00,38.402256,33.704597,0.000000,0.000000,0.000001,0.000001,0.000001,0.000001,0.000001,0,0,0,0
234989,1398,0,123,3.424381,-4.338545,-9.854608,-171.310211,0.317435,83.733727,5590900.00,38.402256,33.704597,0.000000,0.000000,0.000001,0.000001,0.000001,0.000001,0.000001,0,0,0,0
235161,1399,0,127,3.605163,1.355682,-9.854822,-171.310211,0.317019,83.720680,5590900.00,38.402256,33.704597,0.000000,0.000000,0.000000,0.000000,0.000000,0.000000,0.000000,0,0,0,0
235335,1400,0,81,4.335247,5.208397,-9.854646,-171.310211,0.316656,83.711922,5590900.00,38.402256,33.704597,0.000000,0.000000,0.000000,0.000000,0.000000,0.000000,0.000000,0,0,0,0
235501,1401,0,181,4.345576,-4.287313,-9.854561,-171.310211,0.316355,83.706337,5590900.00,38.402256,33.704597,0.000000,0.000000,0.000001,0.000001,0.000000,0.000000,0.000000,0,0,0,0
235829,1403,0,239,4.561772,3.854449,-9.854764,-171.310211,0.316088,83.702454,5590900.00,38.402256,33.704597,0.000000,0.000000,0.000000,0.000000,0.000000,0.000000,0.000000,0,0,0,0
236003,1404,0,241,4.302415,-5.483595,-9.854152,-171.310211,0.315850,83.699669,5591000.00,38.402256,33.704597,0.000000,0.000000,0.000001,0.000001,0.000001,0.000001,0.000001,0,0,0,0
236176,1405,0,51,3.701957,3.730450,-9.854384,-171.310211,0.315648,83.697723,5591000.00,38.402256,33.704597,0.000000,0.000000,0.000000,0.000000,0.000000,0.000000,0.000000,0,0,0,0
236349,1406,0,47,3.690865,4.048316,-9.853987,-171.310211,0.315446,83.696083,5591000.00,38.402256,33.704597,0.000000,0.000000,0.000000,0.000000,0.000000,0.000000,0.000000,0,0,0,0
236671,1408,0,55,4.469343,-3.784583,-9.854102,-171.310211,0.315274,83.694885,5591000.00,38.402256,33.704597,0.000000,0.000000,0.000001,0.000001,0.000001,0.000001,0.000001,0,0,0,0
236843,1409,0,251,4.805230,0.236351,-9.853972,-171.310211,0.315118,83.693947,5591000.00,38.402256,33.704597,0.000000,0.000000,0.000001,0.000001,0.000001,0.000001,0.000001,0,0,0,0
237016,1410,0,207,3.774373,0.504320,-9.854323,-171.310211,0.314968,83.688057,5591100.00,38.402256,33.704597,0.000000,0.000000,0.000001,0.000001,0.000001,0.000001,0.000001,0,0,0,0
